 -60.01
 -57.00
 -54.00
 -51.00
 -48.01
 -45.00
 -42.00
 -39.00
 -36.01
 -33.01
 -30.01
 -27.01
 -24.01
 -21.01
 -18.01
 -15.01
 -12.01
  -9.01
  -6.01
  -3.01
  -0.01
   2.99
   5.99
   8.98
  11.99
  14.98
  17.98
  20.98
  23.98
  26.98
  29.98
  32.98
  35.98
  38.98
  41.99
  44.98
  47.98
  50.98
  53.98
  56.99
  59.98
